 # Alt [km]  H2 [cm^-3]   He [cm^-3]  CH4 [cm^-3]   H [cm^-3]   Tot [cm^-3]  Temp [K]  Press [mBar] Scale height [km]
   -88.00    1.714E+20    2.679E+19    4.164E+17    9.022E+03    1.986E+20    364.73    1.000E+04       6.558E+06
   -86.00    1.685E+20    2.633E+19    4.093E+17    8.869E+03    1.953E+20    358.78    9.672E+03       5.869E+06
   -84.00    1.653E+20    2.583E+19    4.016E+17    8.701E+03    1.915E+20    352.44    9.321E+03       5.303E+06
   -82.00    1.619E+20    2.530E+19    3.933E+17    8.521E+03    1.876E+20    345.94    8.960E+03       4.967E+06
   -80.00    1.584E+20    2.475E+19    3.848E+17    8.337E+03    1.835E+20    339.49    8.603E+03       4.816E+06
   -78.00    1.549E+20    2.421E+19    3.763E+17    8.154E+03    1.795E+20    333.34    8.261E+03       4.841E+06
   -76.00    1.515E+20    2.368E+19    3.681E+17    7.976E+03    1.756E+20    327.56    7.941E+03       4.956E+06
   -74.00    1.482E+20    2.316E+19    3.601E+17    7.801E+03    1.717E+20    322.07    7.637E+03       5.027E+06
   -72.00    1.449E+20    2.265E+19    3.520E+17    7.628E+03    1.679E+20    316.81    7.345E+03       5.030E+06
   -70.00    1.416E+20    2.213E+19    3.440E+17    7.452E+03    1.641E+20    311.66    7.060E+03       4.952E+06
   -68.00    1.382E+20    2.160E+19    3.357E+17    7.273E+03    1.601E+20    306.58    6.778E+03       4.807E+06
   -66.00    1.347E+20    2.105E+19    3.273E+17    7.091E+03    1.561E+20    301.56    6.499E+03       4.670E+06
   -64.00    1.312E+20    2.050E+19    3.187E+17    6.906E+03    1.520E+20    296.63    6.226E+03       4.558E+06
   -62.00    1.277E+20    1.995E+19    3.101E+17    6.719E+03    1.479E+20    291.82    5.960E+03       4.472E+06
   -60.00    1.241E+20    1.939E+19    3.015E+17    6.532E+03    1.438E+20    287.16    5.701E+03       4.410E+06
   -58.00    1.205E+20    1.884E+19    2.928E+17    6.344E+03    1.397E+20    282.65    5.451E+03       4.351E+06
   -56.00    1.170E+20    1.828E+19    2.842E+17    6.157E+03    1.355E+20    278.26    5.208E+03       4.287E+06
   -54.00    1.134E+20    1.773E+19    2.755E+17    5.970E+03    1.314E+20    274.00    4.972E+03       4.218E+06
   -52.00    1.099E+20    1.717E+19    2.669E+17    5.783E+03    1.273E+20    269.85    4.743E+03       4.145E+06
   -50.00    1.063E+20    1.662E+19    2.583E+17    5.596E+03    1.232E+20    265.79    4.521E+03       4.073E+06
   -48.00    1.028E+20    1.607E+19    2.497E+17    5.411E+03    1.191E+20    261.80    4.306E+03       4.002E+06
   -46.00    9.933E+19    1.552E+19    2.413E+17    5.228E+03    1.151E+20    257.86    4.097E+03       3.933E+06
   -44.00    9.590E+19    1.499E+19    2.330E+17    5.047E+03    1.111E+20    253.95    3.896E+03       3.868E+06
   -42.00    9.254E+19    1.446E+19    2.248E+17    4.870E+03    1.072E+20    250.04    3.702E+03       3.808E+06
   -40.00    8.926E+19    1.395E+19    2.168E+17    4.698E+03    1.034E+20    246.13    3.514E+03       3.756E+06
   -38.00    8.607E+19    1.345E+19    2.091E+17    4.530E+03    9.973E+19    242.18    3.335E+03       3.708E+06
   -36.00    8.296E+19    1.296E+19    2.015E+17    4.366E+03    9.612E+19    238.22    3.162E+03       3.655E+06
   -34.00    7.991E+19    1.249E+19    1.941E+17    4.206E+03    9.259E+19    234.28    2.995E+03       3.594E+06
   -32.00    7.690E+19    1.202E+19    1.868E+17    4.048E+03    8.911E+19    230.37    2.834E+03       3.526E+06
   -30.00    7.396E+19    1.156E+19    1.797E+17    3.892E+03    8.569E+19    226.46    2.679E+03       3.461E+06
   -28.00    7.109E+19    1.111E+19    1.727E+17    3.742E+03    8.237E+19    222.52    2.531E+03       3.404E+06
   -26.00    6.832E+19    1.068E+19    1.660E+17    3.596E+03    7.917E+19    218.51    2.388E+03       3.357E+06
   -24.00    6.565E+19    1.026E+19    1.595E+17    3.455E+03    7.607E+19    214.44    2.252E+03       3.308E+06
   -22.00    6.304E+19    9.852E+18    1.531E+17    3.318E+03    7.304E+19    210.38    2.122E+03       3.249E+06
   -20.00    6.046E+19    9.449E+18    1.469E+17    3.182E+03    7.006E+19    206.36    1.996E+03       3.180E+06
   -18.00    5.792E+19    9.052E+18    1.407E+17    3.049E+03    6.712E+19    202.39    1.875E+03       3.109E+06
   -16.00    5.543E+19    8.662E+18    1.346E+17    2.917E+03    6.423E+19    198.44    1.760E+03       3.041E+06
   -14.00    5.299E+19    8.281E+18    1.287E+17    2.789E+03    6.140E+19    194.50    1.649E+03       2.976E+06
   -12.00    5.061E+19    7.910E+18    1.230E+17    2.664E+03    5.865E+19    190.55    1.543E+03       2.911E+06
   -10.00    4.830E+19    7.548E+18    1.173E+17    2.542E+03    5.596E+19    186.58    1.442E+03       2.845E+06
    -8.00    4.604E+19    7.196E+18    1.119E+17    2.423E+03    5.335E+19    182.57    1.345E+03       2.780E+06
    -6.00    4.386E+19    6.855E+18    1.066E+17    2.309E+03    5.083E+19    178.50    1.253E+03       2.717E+06
    -4.00    4.176E+19    6.526E+18    1.014E+17    2.198E+03    4.839E+19    174.37    1.165E+03       2.658E+06
    -2.00    3.973E+19    6.208E+18    9.650E+16    2.091E+03    4.603E+19    170.20    1.082E+03       2.598E+06
     0.00    3.774E+19    5.898E+18    9.168E+16    1.987E+03    4.373E+19    166.05    1.003E+03       2.536E+06
     2.00    3.580E+19    5.594E+18    8.696E+16    1.884E+03    4.148E+19    161.98    9.276E+02       2.473E+06
     4.00    3.388E+19    5.294E+18    8.229E+16    1.783E+03    3.925E+19    158.05    8.565E+02       2.409E+06
     6.00    3.198E+19    4.997E+18    7.767E+16    1.683E+03    3.705E+19    154.28    7.892E+02       2.345E+06
     8.00    3.009E+19    4.702E+18    7.310E+16    1.584E+03    3.487E+19    150.73    7.256E+02       2.281E+06
    10.00    2.823E+19    4.412E+18    6.858E+16    1.486E+03    3.271E+19    147.39    6.656E+02       2.221E+06
    12.00    2.644E+19    4.132E+18    6.422E+16    1.391E+03    3.063E+19    144.13    6.096E+02       2.175E+06
    14.00    2.474E+19    3.867E+18    6.010E+16    1.302E+03    2.867E+19    140.85    5.575E+02       2.140E+06
    16.00    2.314E+19    3.616E+18    5.620E+16    1.218E+03    2.681E+19    137.47    5.088E+02       2.091E+06
    18.00    2.161E+19    3.377E+18    5.249E+16    1.137E+03    2.504E+19    133.98    4.632E+02       2.029E+06
    20.00    2.015E+19    3.148E+18    4.894E+16    1.060E+03    2.334E+19    130.49    4.205E+02       1.972E+06
    22.00    1.873E+19    2.927E+18    4.550E+16    9.858E+02    2.170E+19    127.12    3.809E+02       1.923E+06
    24.00    1.734E+19    2.710E+18    4.212E+16    9.127E+02    2.009E+19    124.10    3.443E+02       1.880E+06
    26.00    1.597E+19    2.496E+18    3.879E+16    8.405E+02    1.850E+19    121.54    3.105E+02       1.840E+06
    28.00    1.462E+19    2.285E+18    3.551E+16    7.694E+02    1.694E+19    119.49    2.795E+02       1.799E+06
    30.00    1.331E+19    2.080E+18    3.233E+16    7.004E+02    1.542E+19    117.91    2.510E+02       1.765E+06
    32.00    1.206E+19    1.884E+18    2.929E+16    6.346E+02    1.397E+19    116.71    2.251E+02       1.739E+06
    34.00    1.088E+19    1.701E+18    2.644E+16    5.729E+02    1.261E+19    115.81    2.016E+02       1.719E+06
    36.00    9.798E+18    1.531E+18    2.380E+16    5.157E+02    1.135E+19    115.11    1.804E+02       1.700E+06
    38.00    8.801E+18    1.375E+18    2.138E+16    4.632E+02    1.020E+19    114.54    1.613E+02       1.683E+06
    40.00    7.902E+18    1.235E+18    1.920E+16    4.159E+02    9.157E+18    114.03    1.442E+02       1.686E+06
    42.00    7.101E+18    1.110E+18    1.725E+16    3.737E+02    8.227E+18    113.55    1.290E+02       1.700E+06
    44.00    6.381E+18    9.972E+17    1.550E+16    3.358E+02    7.393E+18    113.10    1.155E+02       1.706E+06
    46.00    5.722E+18    8.941E+17    1.390E+16    3.011E+02    6.630E+18    112.86    1.033E+02       1.701E+06
    48.00    5.111E+18    7.987E+17    1.242E+16    2.690E+02    5.922E+18    112.99    9.239E+01       1.692E+06
    50.00    4.549E+18    7.109E+17    1.105E+16    2.394E+02    5.271E+18    113.54    8.263E+01       1.694E+06
    52.00    4.040E+18    6.313E+17    9.813E+15    2.126E+02    4.681E+18    114.41    7.394E+01       1.701E+06
    54.00    3.584E+18    5.601E+17    8.706E+15    1.886E+02    4.153E+18    115.48    6.620E+01       1.712E+06
    56.00    3.180E+18    4.969E+17    7.724E+15    1.674E+02    3.684E+18    116.63    5.933E+01       1.725E+06
    58.00    2.822E+18    4.411E+17    6.856E+15    1.485E+02    3.270E+18    117.84    5.321E+01       1.738E+06
    60.00    2.506E+18    3.916E+17    6.087E+15    1.319E+02    2.903E+18    119.13    4.775E+01       1.752E+06
    62.00    2.226E+18    3.479E+17    5.408E+15    1.172E+02    2.580E+18    120.54    4.294E+01       1.782E+06
    64.00    1.982E+18    3.097E+17    4.814E+15    1.043E+02    2.296E+18    122.05    3.870E+01       1.826E+06
    66.00    1.768E+18    2.763E+17    4.295E+15    9.305E+01    2.049E+18    123.62    3.496E+01       1.873E+06
    68.00    1.580E+18    2.468E+17    3.837E+15    8.314E+01    1.830E+18    125.24    3.165E+01       1.908E+06
    70.00    1.412E+18    2.206E+17    3.429E+15    7.430E+01    1.636E+18    126.95    2.867E+01       1.926E+06
    72.00    1.262E+18    1.972E+17    3.065E+15    6.640E+01    1.462E+18    128.81    2.600E+01       1.947E+06
    74.00    1.128E+18    1.763E+17    2.741E+15    5.938E+01    1.307E+18    130.79    2.361E+01       1.973E+06
    76.00    1.010E+18    1.578E+17    2.453E+15    5.315E+01    1.170E+18    132.84    2.146E+01       2.001E+06
    78.00    9.055E+17    1.415E+17    2.200E+15    4.766E+01    1.049E+18    134.85    1.953E+01       2.028E+06
    80.00    8.135E+17    1.271E+17    1.976E+15    4.282E+01    9.426E+17    136.77    1.780E+01       2.051E+06
    82.00    7.323E+17    1.144E+17    1.779E+15    3.854E+01    8.485E+17    138.61    1.624E+01       2.080E+06
    84.00    6.604E+17    1.032E+17    1.604E+15    3.476E+01    7.652E+17    140.46    1.484E+01       2.123E+06
    86.00    5.968E+17    9.327E+16    1.450E+15    3.141E+01    6.916E+17    142.30    1.359E+01       2.168E+06
    88.00    5.404E+17    8.445E+16    1.313E+15    2.844E+01    6.262E+17    144.07    1.246E+01       2.201E+06
    90.00    4.901E+17    7.660E+16    1.191E+15    2.580E+01    5.679E+17    145.75    1.143E+01       2.227E+06
    92.00    4.452E+17    6.957E+16    1.081E+15    2.343E+01    5.158E+17    147.36    1.049E+01       2.247E+06
    94.00    4.051E+17    6.330E+16    9.840E+14    2.132E+01    4.694E+17    148.87    9.648E+00       2.277E+06
    96.00    3.695E+17    5.775E+16    8.977E+14    1.945E+01    4.282E+17    150.27    8.884E+00       2.326E+06
    98.00    3.380E+17    5.282E+16    8.210E+14    1.779E+01    3.916E+17    151.53    8.193E+00       2.372E+06
   100.00    3.096E+17    4.839E+16    7.521E+14    1.630E+01    3.588E+17    152.64    7.561E+00       2.393E+06
   102.00    2.840E+17    4.439E+16    6.899E+14    1.495E+01    3.291E+17    153.61    6.980E+00       2.402E+06
   104.00    2.609E+17    4.077E+16    6.337E+14    1.373E+01    3.023E+17    154.46    6.446E+00       2.414E+06
   106.00    2.399E+17    3.749E+16    5.827E+14    1.263E+01    2.779E+17    155.19    5.955E+00       2.430E+06
   108.00    2.208E+17    3.451E+16    5.364E+14    1.162E+01    2.559E+17    155.85    5.505E+00       2.447E+06
   110.00    2.035E+17    3.180E+16    4.943E+14    1.071E+01    2.358E+17    156.45    5.092E+00       2.465E+06
   112.00    1.877E+17    2.933E+16    4.558E+14    9.877E+00    2.174E+17    156.99    4.713E+00       2.484E+06
   114.00    1.732E+17    2.707E+16    4.208E+14    9.117E+00    2.007E+17    157.48    4.364E+00       2.502E+06
   116.00    1.600E+17    2.500E+16    3.886E+14    8.420E+00    1.854E+17    157.94    4.042E+00       2.512E+06
   118.00    1.478E+17    2.309E+16    3.589E+14    7.776E+00    1.712E+17    158.40    3.744E+00       2.511E+06
   120.00    1.364E+17    2.132E+16    3.314E+14    7.180E+00    1.581E+17    158.89    3.468E+00       2.508E+06
   122.00    1.259E+17    1.968E+16    3.059E+14    6.628E+00    1.459E+17    159.41    3.211E+00       2.508E+06
   124.00    1.162E+17    1.816E+16    2.823E+14    6.116E+00    1.346E+17    159.99    2.974E+00       2.508E+06
   126.00    1.072E+17    1.675E+16    2.604E+14    5.641E+00    1.242E+17    160.61    2.754E+00       2.503E+06
   128.00    9.883E+16    1.544E+16    2.401E+14    5.201E+00    1.145E+17    161.28    2.550E+00       2.495E+06
   130.00    9.112E+16    1.424E+16    2.213E+14    4.796E+00    1.056E+17    161.97    2.361E+00       2.501E+06
   132.00    8.406E+16    1.314E+16    2.042E+14    4.424E+00    9.740E+16    162.68    2.188E+00       2.524E+06
   134.00    7.758E+16    1.212E+16    1.885E+14    4.083E+00    8.990E+16    163.39    2.028E+00       2.539E+06
   136.00    7.161E+16    1.119E+16    1.739E+14    3.769E+00    8.297E+16    164.08    1.880E+00       2.535E+06
   138.00    6.608E+16    1.033E+16    1.605E+14    3.478E+00    7.657E+16    164.76    1.742E+00       2.528E+06
   140.00    6.100E+16    9.533E+15    1.482E+14    3.211E+00    7.068E+16    165.43    1.614E+00       2.536E+06
   142.00    5.634E+16    8.805E+15    1.369E+14    2.965E+00    6.529E+16    166.10    1.497E+00       2.552E+06
   144.00    5.205E+16    8.134E+15    1.264E+14    2.739E+00    6.031E+16    166.76    1.388E+00       2.556E+06
   146.00    4.807E+16    7.511E+15    1.168E+14    2.530E+00    5.569E+16    167.41    1.287E+00       2.544E+06
   148.00    4.439E+16    6.937E+15    1.078E+14    2.336E+00    5.144E+16    168.00    1.193E+00       2.534E+06
   150.00    4.102E+16    6.410E+15    9.964E+13    2.159E+00    4.753E+16    168.49    1.106E+00       2.529E+06
   152.00    3.793E+16    5.927E+15    9.213E+13    1.996E+00    4.395E+16    168.86    1.025E+00       2.526E+06
   154.00    3.508E+16    5.482E+15    8.521E+13    1.846E+00    4.065E+16    169.15    9.492E-01       2.521E+06
   156.00    3.245E+16    5.072E+15    7.883E+13    1.708E+00    3.760E+16    169.36    8.793E-01       2.515E+06
   158.00    3.003E+16    4.693E+15    7.295E+13    1.581E+00    3.480E+16    169.51    8.144E-01       2.511E+06
   160.00    2.780E+16    4.344E+15    6.753E+13    1.463E+00    3.221E+16    169.61    7.542E-01       2.507E+06
   162.00    2.573E+16    4.021E+15    6.251E+13    1.354E+00    2.982E+16    169.64    6.983E-01       2.498E+06
   164.00    2.382E+16    3.722E+15    5.786E+13    1.254E+00    2.760E+16    169.61    6.463E-01       2.485E+06
   166.00    2.206E+16    3.447E+15    5.359E+13    1.161E+00    2.556E+16    169.54    5.983E-01       2.493E+06
   168.00    2.046E+16    3.197E+15    4.970E+13    1.077E+00    2.371E+16    169.43    5.546E-01       2.535E+06
   170.00    1.900E+16    2.970E+15    4.617E+13    1.000E+00    2.202E+16    169.29    5.147E-01       2.580E+06
   172.00    1.766E+16    2.760E+15    4.291E+13    9.296E-01    2.047E+16    169.09    4.778E-01       2.591E+06
   174.00    1.641E+16    2.565E+15    3.987E+13    8.638E-01    1.902E+16    168.86    4.434E-01       2.574E+06
   176.00    1.524E+16    2.382E+15    3.702E+13    8.021E-01    1.766E+16    168.65    4.112E-01       2.555E+06
   178.00    1.414E+16    2.210E+15    3.435E+13    7.443E-01    1.639E+16    168.48    3.812E-01       2.542E+06
   180.00    1.314E+16    2.053E+15    3.191E+13    6.914E-01    1.522E+16    168.25    3.536E-01       2.562E+06
   182.00    1.223E+16    1.912E+15    2.972E+13    6.439E-01    1.418E+16    167.85    3.285E-01       2.620E+06
   184.00    1.138E+16    1.778E+15    2.764E+13    5.988E-01    1.318E+16    167.55    3.049E-01       2.589E+06
   186.00    1.047E+16    1.636E+15    2.544E+13    5.511E-01    1.213E+16    167.84    2.812E-01       2.366E+06
   188.00    9.489E+15    1.483E+15    2.305E+13    4.994E-01    1.100E+16    168.95    2.565E-01       2.077E+06
   190.00    8.482E+15    1.326E+15    2.060E+13    4.464E-01    9.828E+15    170.68    2.316E-01       1.862E+06
   192.00    7.503E+15    1.172E+15    1.822E+13    3.949E-01    8.693E+15    172.81    2.074E-01       1.715E+06
   194.00    6.596E+15    1.031E+15    1.602E+13    3.471E-01    7.642E+15    175.12    1.848E-01       1.633E+06
   196.00    5.799E+15    9.062E+14    1.409E+13    3.052E-01    6.719E+15    177.41    1.646E-01       1.629E+06
   198.00    5.144E+15    8.038E+14    1.249E+13    2.707E-01    5.960E+15    179.44    1.477E-01       1.746E+06
   200.00    4.660E+15    7.270E+14    1.130E+13    1.000E-15    5.398E+15    181.00    1.349E-01       2.114E+06
   202.00    4.330E+15    6.750E+14    1.050E+13    1.453E+01    5.016E+15    182.00    1.260E-01       2.847E+06
   204.00    4.031E+15    6.282E+14    9.776E+12    4.648E+01    4.669E+15    182.75    1.178E-01       2.862E+06
   206.00    3.774E+15    5.882E+14    9.153E+12    7.844E+01    4.372E+15    183.33    1.107E-01       3.097E+06
   208.00    3.530E+15    5.500E+14    8.560E+12    9.297E+01    4.089E+15    184.00    1.039E-01       3.063E+06
   210.00    3.279E+15    5.105E+14    7.950E+12    7.263E+01    3.798E+15    184.96    9.698E-02       2.815E+06
   212.00    3.040E+15    4.730E+14    7.370E+12   -9.351E-06    3.520E+15    186.00    9.039E-02       2.743E+06
   214.00    2.832E+15    4.412E+14    6.870E+12   -1.162E+02    3.280E+15    186.93    8.465E-02       2.948E+06
   216.00    2.647E+15    4.132E+14    6.427E+12   -1.627E+02    3.067E+15    187.86    7.955E-02       3.118E+06
   218.00    2.470E+15    3.860E+14    6.000E+12    1.300E-01    2.862E+15    189.00    7.468E-02       3.069E+06
   220.00    2.291E+15    3.575E+14    5.561E+12    4.422E+02    2.654E+15    190.46    6.979E-02       2.853E+06
   222.00    2.120E+15    3.300E+14    5.140E+12    9.560E+02    2.455E+15    192.00    6.508E-02       2.763E+06
   224.00    1.969E+15    3.062E+14    4.770E+12    1.332E+03    2.280E+15    193.37    6.087E-02       2.893E+06
   226.00    1.833E+15    2.852E+14    4.439E+12    1.631E+03    2.122E+15    194.65    5.703E-02       2.967E+06
   228.00    1.700E+15    2.650E+14    4.120E+12    1.980E+03    1.969E+15    196.00    5.328E-02       2.847E+06
   230.00    1.565E+15    2.444E+14    3.800E+12    2.464E+03    1.813E+15    197.52    4.944E-02       2.574E+06
   232.00    1.440E+15    2.250E+14    3.500E+12    2.990E+03    1.669E+15    199.00    4.586E-02       2.558E+06
   234.00    1.336E+15    2.084E+14    3.245E+12    3.458E+03    1.548E+15    200.26    4.280E-02       2.801E+06
   236.00    1.247E+15    1.938E+14    3.022E+12    3.917E+03    1.443E+15    201.49    4.014E-02       3.021E+06
   238.00    1.160E+15    1.800E+14    2.810E+12    4.450E+03    1.343E+15    203.00    3.764E-02       3.009E+06
   240.00    1.069E+15    1.660E+14    2.595E+12    5.103E+03    1.237E+15    204.96    3.500E-02       2.655E+06
   242.00    9.820E+14    1.530E+14    2.390E+12    5.760E+03    1.137E+15    207.00    3.249E-02       2.590E+06
   244.00    9.090E+14    1.420E+14    2.213E+12    6.330E+03    1.053E+15    208.76    3.035E-02       2.830E+06
   246.00    8.463E+14    1.324E+14    2.056E+12    6.967E+03    9.808E+14    210.35    2.848E-02       3.053E+06
   248.00    7.870E+14    1.230E+14    1.910E+12    7.890E+03    9.119E+14    212.00    2.669E-02       2.977E+06
   250.00    7.264E+14    1.132E+14    1.766E+12    9.283E+03    8.414E+14    213.90    2.485E-02       2.696E+06
   252.00    6.690E+14    1.040E+14    1.630E+12    1.120E+04    7.746E+14    216.00    2.310E-02       2.643E+06
   254.00    6.198E+14    9.634E+13    1.510E+12    1.370E+04    7.177E+14    218.23    2.162E-02       2.930E+06
   256.00    5.768E+14    8.980E+13    1.401E+12    1.696E+04    6.680E+14    220.57    2.034E-02       3.173E+06
   258.00    5.360E+14    8.360E+13    1.300E+12    2.120E+04    6.209E+14    223.00    1.912E-02       3.119E+06
