 #!    Altitude [km]	     H2 Density [cm^-3]	      Pressure [mBar]
   200.00000000000000        4659997341382819.0       0.134893775    
   202.00000000000000        4330000000000000.0       0.126040295    
   204.00000000000000        4031345160000000.0       0.117806576    
   206.00000000000000        3774219690000000.0       0.110659227    
   208.00000000000000        3530000070000000.0       0.103876047    
   210.00000000000000        3279339330000000.0        9.69845280E-02
   212.00000000000000        3040000130000000.0        9.03932601E-02
   214.00000000000000        2831974470000000.0        8.46502781E-02
   216.00000000000000        2647058410000000.0        7.95479715E-02
   218.00000000000000        2469999990000000.0        7.46813044E-02
   220.00000000000000        2290740940000000.0        6.97890595E-02
   222.00000000000000        2120000020000000.0        6.50778487E-02
   224.00000000000000        1969318880000000.0        6.08694218E-02
   226.00000000000000        1832756230000000.0        5.70258051E-02
   228.00000000000000        1700000000000000.0        5.32822087E-02
   230.00000000000000        1565156010000000.0        4.94412892E-02
   232.00000000000000        1439999990000000.0        4.58553396E-02
   234.00000000000000        1336111040000000.0        4.27991673E-02
   236.00000000000000        1246609290000000.0        4.01418656E-02
   238.00000000000000        1159999930000000.0        3.76402549E-02
   240.00000000000000        1068853410000000.0        3.50036062E-02
   242.00000000000000        981999980000000.00        3.24946009E-02
   244.00000000000000        909032982000000.00        3.03496607E-02
   246.00000000000000        846338271000000.00        2.84838006E-02
   248.00000000000000        787000009000000.00        2.66909227E-02
   250.00000000000000        726386277000000.00        2.48477869E-02
   252.00000000000000        669000011000000.00        2.30999850E-02
   254.00000000000000        619847600000000.00        2.16241162E-02
   256.00000000000000        576813101000000.00        2.03420948E-02
   258.00000000000000        536000007000000.00        1.91164389E-02
   260.00000000000000        494830396000000.00        1.78463198E-02
   262.00000000000000        456000000000000.00        1.66269932E-02
   264.00000000000000        422460533000000.00        1.55699346E-02
   266.00000000000000        392914010000000.00        1.46438573E-02
   268.00000000000000        365000011000000.00        1.37793943E-02
   270.00000000000000        337154664000000.00        1.29162967E-02
   272.00000000000000        310999991000000.00        1.20879039E-02
   274.00000000000000        288292835000000.00        1.13393255E-02
   276.00000000000000        268143314000000.00        1.06686512E-02
   278.00000000000000        249000008000000.00        1.00340499E-02
   280.00000000000000        229870676000000.00        9.40653961E-03
   282.00000000000000        212000005000000.00        8.81262589E-03
   284.00000000000000        196674153000000.00        8.28957465E-03
   286.00000000000000        183108331000000.00        7.81957433E-03
   288.00000000000000        170000007000000.00        7.36708147E-03
   290.00000000000000        156553487000000.00        6.90873107E-03
   292.00000000000000        144000003000000.00        6.47505047E-03
   294.00000000000000        133593255000000.00        6.10798877E-03
   296.00000000000000        124649346000000.00        5.78454183E-03
   298.00000000000000        116000003000000.00        5.46988891E-03
   300.00000000000000        106887970000000.00        5.12688747E-03
   302.00000000000000        98199998000000.000        4.78785252E-03
   304.00000000000000        90902076900000.000        4.50563896E-03
   306.00000000000000        84633060400000.000        4.26296098E-03
   308.00000000000000        78699999300000.000        4.02881810E-03
   310.00000000000000        72638718300000.000        3.78123322E-03
   312.00000000000000        66900000200000.000        3.53985932E-03
   314.00000000000000        61985047700000.000        3.33094457E-03
   316.00000000000000        57681834400000.000        3.14570894E-03
   318.00000000000000        53600000700000.000        2.96604866E-03
   320.00000000000000        49481827500000.000        2.77808495E-03
   322.00000000000000        45599999100000.000        2.59614433E-03
   324.00000000000000        42251472300000.000        2.43702368E-03
   326.00000000000000        39299760300000.000        2.29596952E-03
   328.00000000000000        36499999400000.000        2.16032891E-03
   330.00000000000000        33697734600000.000        2.02160608E-03
   332.00000000000000        31100000800000.000        1.89028948E-03
   334.00000000000000        28907619200000.000        1.77683530E-03
   336.00000000000000        26935012900000.000        1.67379691E-03
   338.00000000000000        24899999500000.000        1.56483415E-03
   340.00000000000000        22618648300000.000        1.43960747E-03
   342.00000000000000        20299999300000.000        1.30809168E-03
   344.00000000000000        18188632900000.000        1.18492928E-03
   346.00000000000000        16278287800000.000        1.07154821E-03
   348.00000000000000        14500000400000.000        9.64901759E-04
   350.00000000000000        12814336900000.000        8.61620705E-04
   352.00000000000000        11300000200000.000        7.68084545E-04
   354.00000000000000        10034586100000.000        6.88929693E-04
   356.00000000000000        8973124110000.0000        6.21634070E-04
   358.00000000000000        8040000000000.0000        5.62312664E-04
   360.00000000000000        7181312720000.0000        5.06575103E-04
   362.00000000000000        6430000150000.0000        4.56897949E-04
   364.00000000000000        5823052380000.0000        4.16233059E-04
   366.00000000000000        5326821650000.0000        3.82745638E-04
   368.00000000000000        4890000100000.0000        3.53158073E-04
   370.00000000000000        4476361510000.0000        3.25013069E-04
   372.00000000000000        4110000060000.0000        2.99942913E-04
   374.00000000000000        3818004150000.0000        2.79947417E-04
   376.00000000000000        3579117830000.0000        2.63721740E-04
   378.00000000000000        3360000050000.0000        2.48805969E-04
   380.00000000000000        3137596290000.0000        2.33629427E-04
   382.00000000000000        2930000000000.0000        2.19431357E-04
   384.00000000000000        2758189250000.0000        2.07607110E-04
   386.00000000000000        2613533740000.0000        1.97637070E-04
   388.00000000000000        2479999940000.0000        1.88524762E-04
   390.00000000000000        2346284220000.0000        1.79367518E-04
   392.00000000000000        2220000020000.0000        1.70620609E-04
   394.00000000000000        2110186980000.0000        1.62944605E-04
   396.00000000000000        2012677140000.0000        1.56067617E-04
   398.00000000000000        1920000070000.0000        1.49594009E-04
   400.00000000000000        1827277770000.0000        1.43172074E-04
   402.00000000000000        1739999940000.0000        1.37148090E-04
   404.00000000000000        1663964940000.0000        1.31761597E-04
   406.00000000000000        1595837640000.0000        1.26946063E-04
   408.00000000000000        1530000050000.0000        1.22220896E-04
   410.00000000000000        1462994080000.0000        1.17487885E-04
   412.00000000000000        1399999950000.0000        1.12964241E-04
   414.00000000000000        1346191620000.0000        1.09038403E-04
   416.00000000000000        1298077710000.0000        1.05553663E-04
   418.00000000000000        1249999980000.0000        1.02064085E-04
   420.00000000000000        1198635610000.0000        9.82998608E-05
   422.00000000000000        1150000040000.0000        9.47857625E-05
   424.00000000000000        1110074850000.0000        9.19203521E-05
   426.00000000000000        1075363450000.0000        8.93728284E-05
   428.00000000000000        1040000020000.0000        8.67450581E-05
   430.00000000000000        1000262070000.0000        8.38324704E-05
   432.00000000000000        960999981000.00000        8.09630874E-05
   434.00000000000000        927503483000.00000        7.84874646E-05
   436.00000000000000        898246705000.00000        7.63214484E-05
   438.00000000000000        869999968000.00000        7.42074699E-05
   440.00000000000000        840581448000.00000        7.19878299E-05
   442.00000000000000        812000018000.00000        6.98133590E-05
   444.00000000000000        786503434000.00000        6.78666911E-05
   446.00000000000000        763102757000.00000        6.60747100E-05
   448.00000000000000        740000006000.00000        6.43040548E-05
   450.00000000000000        716085133000.00000        6.24778331E-05
   452.00000000000000        693000012000.00000        6.07039874E-05
   454.00000000000000        672443793000.00000        5.91224416E-05
   456.00000000000000        653594526000.00000        5.76621496E-05
   458.00000000000000        634999996000.00000        5.62249697E-05
   460.00000000000000        615737131000.00000        5.47395794E-05
   462.00000000000000        596999995000.00000        5.32872400E-05
   464.00000000000000        580060840000.00000        5.19633759E-05
   466.00000000000000        564388364000.00000        5.07351142E-05
   468.00000000000000        548999987000.00000        4.95331733E-05
   470.00000000000000        533270135000.00000        4.83167132E-05
   472.00000000000000        517999985000.00000        4.71150597E-05
   474.00000000000000        504031707000.00000        4.59973380E-05
   476.00000000000000        490944102000.00000        4.49368526E-05
   478.00000000000000        477999989000.00000        4.38791576E-05
   480.00000000000000        464763126000.00000        4.28025269E-05
   482.00000000000000        451999990000.00000        4.17593910E-05
   484.00000000000000        440473256000.00000        4.08144988E-05
   486.00000000000000        429726826000.00000        3.99319324E-05
   488.00000000000000        418999992000.00000        3.90718087E-05
   490.00000000000000        407836787000.00000        3.81884565E-05
   492.00000000000000        397000016000.00000        3.73244984E-05
   494.00000000000000        387256320000.00000        3.65113046E-05
   496.00000000000000        378168902000.00000        3.57330537E-05
   498.00000000000000        368999989000.00000        3.49470210E-05
   500.00000000000000        359328514000.00000        3.41437626E-05
   502.00000000000000        349999989000.00000        3.33695170E-05
   504.00000000000000        341854552000.00000        3.26981099E-05
   506.00000000000000        334444462000.00000        3.20893487E-05
   508.00000000000000        326999998000.00000        3.14701283E-05
   510.00000000000000        319010341000.00000        3.07984519E-05
   512.00000000000000        311000007000.00000        3.01273321E-05
   514.00000000000000        303579234000.00000        2.94836937E-05
   516.00000000000000        296664760000.00000        2.88919200E-05
   518.00000000000000        290000011000.00000        2.83138106E-05
   520.00000000000000        283404272000.00000        2.77358849E-05
   522.00000000000000        276999995000.00000        2.71728477E-05
   524.00000000000000        270914454000.00000        2.66400857E-05
   526.00000000000000        264990507000.00000        2.61244604E-05
   528.00000000000000        258999992000.00000        2.56143485E-05
   530.00000000000000        252851405000.00000        2.50837347E-05
   532.00000000000000        247000007000.00000        2.45869214E-05
   534.00000000000000        241847026000.00000        2.41417947E-05
   536.00000000000000        237031047000.00000        2.37146851E-05
   538.00000000000000        231999996000.00000        2.32747479E-05
   540.00000000000000        226441249000.00000        2.27776382E-05
   542.00000000000000        221000008000.00000        2.22846502E-05
   544.00000000000000        216330256000.00000        2.18585828E-05
   546.00000000000000        212163346000.00000        2.14759602E-05
   548.00000000000000        207999992000.00000        2.11053466E-05
   550.00000000000000        203505091000.00000        2.07013909E-05
   552.00000000000000        198999998000.00000        2.02946921E-05
   554.00000000000000        194848817000.00000        1.99170881E-05
   556.00000000000000        190929830000.00000        1.95537305E-05
   558.00000000000000        186999996000.00000        1.91921117E-05
   560.00000000000000        182924296000.00000        1.88260565E-05
   562.00000000000000        179000001000.00000        1.84677847E-05
   564.00000000000000        175514403000.00000        1.81503892E-05
   566.00000000000000        172282184000.00000        1.78480332E-05
   568.00000000000000        168999993000.00000        1.75469686E-05
   570.00000000000000        165480415000.00000        1.72204527E-05
   572.00000000000000        161999995000.00000        1.69033410E-05
   574.00000000000000        158850580000.00000        1.66204936E-05
   576.00000000000000        155921138000.00000        1.63419973E-05
   578.00000000000000        153000002000.00000        1.60696145E-05
   580.00000000000000        149958476000.00000        1.57744817E-05
   582.00000000000000        147000001000.00000        1.54997015E-05
   584.00000000000000        144318988000.00000        1.52468428E-05
   586.00000000000000        141741146000.00000        1.50039778E-05
   588.00000000000000        139000005000.00000        1.47481342E-05
   590.00000000000000        135958905000.00000        1.44470278E-05
   592.00000000000000        133000004000.00000        1.41653663E-05
   594.00000000000000        130496864000.00000        1.39266022E-05
   596.00000000000000        128269607000.00000        1.37190618E-05
   598.00000000000000        125999997000.00000        1.34988632E-05
   600.00000000000000        123487207000.00000        1.32646446E-05
   602.00000000000000        121000002000.00000        1.30187718E-05
   604.00000000000000        118829998000.00000        1.28159518E-05
   606.00000000000000        116890436000.00000        1.26239074E-05
   608.00000000000000        115000001000.00000        1.24515236E-05
   610.00000000000000        113022214000.00000        1.22553747E-05
   612.00000000000000        111000003000.00000        1.20563018E-05
   614.00000000000000        109000991000.00000        1.18652652E-05
   616.00000000000000        107012071000.00000        1.16624988E-05
   618.00000000000000        105000002000.00000        1.14707727E-05
   620.00000000000000        102959849000.00000        1.12695561E-05
   622.00000000000000        101000004000.00000        1.10778965E-05
   624.00000000000000        99213877200.000000        1.08939175E-05
   626.00000000000000        97521590300.000000        1.07298829E-05
   628.00000000000000        95800000500.000000        1.05559329E-05
   630.00000000000000        93978910700.000000        1.03760867E-05
   632.00000000000000        92200001500.000000        1.01982359E-05
   634.00000000000000        90603765800.000000        1.00353009E-05
   636.00000000000000        89113935900.000000        9.88050942E-06
   638.00000000000000        87599996900.000000        9.72504586E-06
   640.00000000000000        85984247800.000000        9.56281656E-06
   642.00000000000000        84399996900.000000        9.40636801E-06
   644.00000000000000        82981560300.000000        9.26565826E-06
   646.00000000000000        81656340500.000000        9.13228178E-06
   648.00000000000000        80299999200.000000        8.99395945E-06
   650.00000000000000        78838636500.000000        8.84117708E-06
   652.00000000000000        77399998500.000000        8.69087489E-06
   654.00000000000000        76114018300.000000        8.56058887E-06
   656.00000000000000        74917748700.000000        8.44091028E-06
   658.00000000000000        73699999700.000000        8.31715261E-06
   660.00000000000000        72392679400.000000        8.18019362E-06
   662.00000000000000        71099998200.000000        8.04498450E-06
   664.00000000000000        69929132000.000000        7.92418996E-06
   666.00000000000000        68826890200.000000        7.81322433E-06
   668.00000000000000        67699998700.000000        7.69776489E-06
   670.00000000000000        66492776400.000000        7.57073394E-06
   672.00000000000000        65300000800.000000        7.44389126E-06
   674.00000000000000        64219545600.000000        7.32846456E-06
   676.00000000000000        63211139100.000000        7.22251070E-06
   678.00000000000000        62200000500.000000        7.11735993E-06
   680.00000000000000        61140045800.000000        7.01007184E-06
   682.00000000000000        60100001800.000000        6.90337947E-06
   684.00000000000000        59148652500.000000        6.80363792E-06
   686.00000000000000        58240147500.000000        6.70723512E-06
   688.00000000000000        57300000800.000000        6.60680189E-06
   690.00000000000000        56287866900.000000        6.49784397E-06
   692.00000000000000        55300001800.000000        6.39238442E-06
   694.00000000000000        54430302200.000000        6.30005343E-06
   696.00000000000000        53626548200.000000        6.21411709E-06
   698.00000000000000        52800000000.000000        6.12679696E-06
   700.00000000000000        51896471600.000000        6.02911769E-06
   702.00000000000000        51000000500.000000        5.93233426E-06
   704.00000000000000        50198106100.000000        5.84661802E-06
   706.00000000000000        49454039000.000000        5.76748243E-06
   708.00000000000000        48699998200.000000        5.68701535E-06
   710.00000000000000        47894331400.000000        5.60066565E-06
   712.00000000000000        47099998200.000000        5.51403491E-06
   714.00000000000000        46381084700.000000        5.43620854E-06
   716.00000000000000        45701472300.000000        5.36394418E-06
   718.00000000000000        44999999500.000000        5.28830378E-06
   720.00000000000000        44242157600.000000        5.20579124E-06
   722.00000000000000        43499999200.000000        5.12575070E-06
   724.00000000000000        42844266500.000000        5.05208027E-06
   726.00000000000000        42233921500.000000        4.98455893E-06
   728.00000000000000        41600000000.000000        4.91410674E-06
   730.00000000000000        40900337700.000000        4.83688882E-06
   732.00000000000000        40199999500.000000        4.76126161E-06
   734.00000000000000        39568150500.000000        4.69208362E-06
   736.00000000000000        38982987800.000000        4.62833668E-06
   738.00000000000000        38400000000.000000        4.56575845E-06
   740.00000000000000        37791854600.000000        4.49864456E-06
   742.00000000000000        37199999000.000000        4.43419049E-06
   744.00000000000000        36664250400.000000        4.37403878E-06
   746.00000000000000        36149051400.000000        4.31561421E-06
   748.00000000000000        35599999000.000000        4.25433745E-06
   750.00000000000000        34989862900.000000        4.18734089E-06
   752.00000000000000        34400002000.000000        4.12129748E-06
   754.00000000000000        33907931100.000000        4.06652407E-06
   756.00000000000000        33467111400.000000        4.01685929E-06
   758.00000000000000        32999999500.000000        3.96424548E-06
   760.00000000000000        32456964100.000000        3.90352079E-06
   762.00000000000000        31900000300.000000        3.84148598E-06
   764.00000000000000        31398836200.000000        3.78505683E-06
   766.00000000000000        30942537700.000000        3.73378111E-06
